# wavelength (nm) 
608.8725 
608.8835 
608.9215 
609.1693 
609.3252 
609.4111 
609.6080 
609.7689 
609.8998 
610.0067 
610.0936 
610.1646 
610.2226 
610.2705 
610.3095 
610.3415 
610.3675 
610.3894 
610.4074 
610.4224 
610.4344 
610.4444 
610.4534 
610.4604 
610.4664 
610.4724 
610.4764 
610.4804 
610.4844 
610.4874 
610.4904 
610.4924 
610.4954 
610.4974 
610.4994 
610.5014 
610.5034 
610.5054 
610.5064 
610.5084 
610.5104 
610.5114 
610.5134 
610.5143 
610.5163 
610.5173 
610.5193 
610.5213 
610.5223 
610.5243 
610.5253 
610.5263 
610.5283 
610.5293 
610.5313 
610.5323 
610.5343 
610.5353 
610.5373 
610.5383 
610.5403 
610.5413 
610.5433 
610.5443 
610.5463 
610.5483 
610.5493 
610.5513 
610.5533 
610.5543 
610.5563 
610.5583 
610.5603 
610.5623 
610.5643 
610.5673 
610.5693 
610.5723 
610.5753 
610.5793 
610.5833 
610.5873 
610.5933 
610.5993 
610.6063 
610.6153 
610.6253 
610.6373 
610.6523 
610.6682 
610.6702 
610.6922 
610.7182 
610.7502 
610.7892 
610.8371 
610.8951 
610.9670 
611.0540 
611.1609 
611.2928 
611.4547 
611.5926 
611.6526 
611.7655 
611.8964 
611.9254 
612.0083 
612.1962 
669.1448 
669.1617 
669.3156 
669.4705 
669.5915 
669.6104 
669.6794 
669.7364 
669.8503 
669.9492 
669.9532 
670.0082 
670.0301 
670.0451 
670.0461 
670.0591 
670.0721 
670.0871 
670.1091 
670.1291 
670.1681 
670.2050 
670.2730 
670.3349 
670.3909 
670.4389 
670.4409 
670.4868 
670.5278 
670.5648 
670.5978 
670.6287 
670.6557 
670.6807 
670.7037 
670.7237 
670.7417 
670.7586 
670.7736 
670.7876 
670.8006 
670.8116 
670.8216 
670.8316 
670.8396 
670.8476 
670.8546 
670.8606 
670.8666 
670.8726 
670.8776 
670.8816 
670.8856 
670.8896 
670.8936 
670.8965 
670.8995 
670.9025 
670.9045 
670.9075 
670.9095 
670.9115 
670.9135 
670.9155 
670.9175 
670.9195 
670.9205 
670.9225 
670.9235 
670.9255 
670.9265 
670.9275 
670.9295 
670.9305 
670.9315 
670.9325 
670.9335 
670.9345 
670.9355 
670.9365 
670.9375 
670.9385 
670.9395 
670.9405 
670.9415 
670.9425 
670.9435 
670.9445 
670.9455 
670.9465 
670.9475 
670.9485 
670.9495 
670.9505 
670.9515 
670.9525 
670.9535 
670.9545 
670.9555 
670.9565 
670.9575 
670.9585 
670.9595 
670.9605 
670.9615 
670.9625 
670.9635 
670.9645 
670.9655 
670.9665 
670.9675 
670.9685 
670.9695 
670.9705 
670.9715 
670.9725 
670.9735 
670.9745 
670.9755 
670.9765 
670.9775 
670.9785 
670.9795 
670.9805 
670.9815 
670.9825 
670.9835 
670.9845 
670.9855 
670.9865 
670.9875 
670.9885 
670.9895 
670.9905 
670.9915 
670.9925 
670.9935 
670.9945 
670.9955 
670.9965 
670.9975 
670.9985 
670.9995 
671.0005 
671.0015 
671.0025 
671.0045 
671.0055 
671.0065 
671.0085 
671.0095 
671.0115 
671.0125 
671.0145 
671.0165 
671.0175 
671.0195 
671.0225 
671.0245 
671.0265 
671.0295 
671.0325 
671.0355 
671.0384 
671.0424 
671.0454 
671.0504 
671.0544 
671.0594 
671.0654 
671.0714 
671.0774 
671.0844 
671.0924 
671.1004 
671.1104 
671.1204 
671.1314 
671.1444 
671.1584 
671.1734 
671.1903 
671.2083 
671.2283 
671.2513 
671.2763 
671.3033 
671.3342 
671.3672 
671.4052 
671.4462 
671.4921 
671.5421 
671.5981 
671.6600 
671.7290 
671.8049 
671.8889 
671.9818 
672.0857 
672.1996 
672.3266 
672.4675 
672.6234 
672.7972 
810.6538 
811.0495 
811.3713 
811.3933 
811.6331 
811.8470 
812.0218 
812.1638 
812.2797 
812.3746 
812.4516 
812.5155 
812.5675 
812.6094 
812.6444 
812.6734 
812.6974 
812.7174 
812.7334 
812.7473 
812.7583 
812.7683 
812.7763 
812.7833 
812.7893 
812.7953 
812.8003 
812.8043 
812.8083 
812.8113 
812.8143 
812.8173 
812.8203 
812.8223 
812.8253 
812.8273 
812.8303 
812.8323 
812.8343 
812.8363 
812.8383 
812.8403 
812.8423 
812.8443 
812.8463 
812.8483 
812.8503 
812.8523 
812.8543 
812.8563 
812.8583 
812.8603 
812.8623 
812.8643 
812.8663 
812.8683 
812.8703 
812.8723 
812.8743 
812.8763 
812.8783 
812.8803 
812.8823 
812.8843 
812.8872 
812.8892 
812.8912 
812.8932 
812.8962 
812.8982 
812.9012 
812.9042 
812.9062 
812.9102 
812.9132 
812.9172 
812.9212 
812.9262 
812.9312 
812.9372 
812.9442 
812.9532 
812.9622 
812.9742 
812.9882 
813.0042 
813.0242 
813.0481 
813.0761 
813.1121 
813.1541 
813.2060 
813.2700 
813.2760 
813.3469 
813.3849 
813.4419 
813.5588 
813.7017 
813.8766 
814.0914 
814.3552 
814.6800 
815.0787 
